"10%V - RawData"
"Wavelength nm.","Abs."
300.00000,3.991226
300.50000, 
301.00000,3.972412
301.50000, 
302.00000,3.812500
302.50000, 
303.00000,3.967651
303.50000, 
304.00000,3.993332
304.50000, 
305.00000,3.934540
305.50000, 
306.00000,3.837921
306.50000, 
307.00000,3.810638
307.50000, 
308.00000,3.948746
308.50000, 
309.00000,3.781693
309.50000, 
310.00000,3.919937
310.50000, 
311.00000,3.808929
311.50000, 
312.00000,3.843506
312.50000, 
313.00000,3.868423
313.50000, 
314.00000,3.960800
314.50000, 
315.00000,3.914352
315.50000, 
316.00000,3.622299
316.50000, 
317.00000,3.586258
317.50000, 
318.00000,3.981689
318.50000, 
319.00000,3.821030
319.50000, 
320.00000,3.940887
320.50000, 
321.00000,3.859055
321.50000, 
322.00000,3.885864
322.50000, 
323.00000,3.893616
323.50000, 
324.00000,3.587997
324.50000, 
325.00000,3.816360
325.50000, 
326.00000,3.863815
326.50000, 
327.00000,3.757492
327.50000, 
328.00000,3.834366
328.50000, 
329.00000,3.690720
329.50000, 
330.00000,3.918518
330.50000, 
331.00000,3.806824
331.50000, 
332.00000,3.818130
332.50000, 
333.00000,3.875763
333.50000, 
334.00000,3.744736
334.50000, 
335.00000,3.834976
335.50000, 
336.00000,3.872208
336.50000, 
337.00000,3.755295
337.50000, 
338.00000,3.681229
338.50000, 
339.00000,3.750748
339.50000, 
340.00000,3.645844
340.50000, 
341.00000,3.710983
341.50000, 
342.00000,3.884872
342.50000, 
343.00000,3.711685
343.50000, 
344.00000,3.804932
344.50000, 
345.00000,3.682358
345.50000, 
346.00000,3.821747
346.50000, 
347.00000,3.770096
347.50000, 
348.00000,3.890213
348.50000, 
349.00000,3.947021
349.50000, 
350.00000,3.756393
350.50000, 
351.00000,3.747604
351.50000, 
352.00000,3.526489
352.50000, 
353.00000,3.794327
353.50000, 
354.00000,3.916595
354.50000, 
355.00000,3.956100
355.50000, 
356.00000,3.854111
356.50000, 
357.00000,3.609207
357.50000, 
358.00000,3.711517
358.50000, 
359.00000,3.805496
359.50000, 
360.00000,3.860901
360.50000, 
361.00000,3.879196
361.50000, 
362.00000,3.564819
362.50000, 
363.00000,3.732452
363.50000, 
364.00000,3.945480
364.50000, 
365.00000,3.786118
365.50000, 
366.00000,3.859009
366.50000, 
367.00000,3.581177
367.50000, 
368.00000,3.735596
368.50000, 
369.00000,3.712036
369.50000, 
370.00000,3.822540
370.50000, 
371.00000,3.793900
371.50000, 
372.00000,3.693924
372.50000, 
373.00000,3.582321
373.50000, 
374.00000,3.875626
374.50000, 
375.00000,3.835281
375.50000, 
376.00000,3.843872
376.50000, 
377.00000,3.926880
377.50000, 
378.00000,3.753555
378.50000, 
379.00000,3.666458
379.50000, 
380.00000,3.722626
380.50000, 
381.00000,3.906143
381.50000, 
382.00000,3.569580
382.50000, 
383.00000,3.305542
383.50000, 
384.00000,3.158615
384.50000, 
385.00000,2.917480
385.50000, 
386.00000,2.716644
386.50000, 
387.00000,2.525757
387.50000, 
388.00000,2.378769
388.50000, 
389.00000,2.226410
389.50000, 
390.00000,2.097046
390.50000, 
391.00000,1.975983
391.50000, 
392.00000,1.871750
392.50000, 
393.00000,1.787933
393.50000, 
394.00000,1.705399
394.50000, 
395.00000,1.640015
395.50000, 
396.00000,1.584839
396.50000, 
397.00000,1.537979
397.50000, 
398.00000,1.500244
398.50000, 
399.00000,1.467087
399.50000, 
400.00000,1.438278
400.50000, 
401.00000,1.412842
401.50000, 
402.00000,1.389282
402.50000, 
403.00000,1.367401
403.50000, 
404.00000,1.346832
404.50000, 
405.00000,1.328064
405.50000, 
406.00000,1.311203
406.50000, 
407.00000,1.295227
407.50000, 
408.00000,1.281311
408.50000, 
409.00000,1.269211
409.50000, 
410.00000,1.257263
410.50000, 
411.00000,1.247635
411.50000, 
412.00000,1.239258
412.50000, 
413.00000,1.232025
413.50000, 
414.00000,1.225189
414.50000, 
415.00000,1.218857
415.50000, 
416.00000,1.214996
416.50000, 
417.00000,1.211517
417.50000, 
418.00000,1.206787
418.50000, 
419.00000,1.202820
419.50000, 
420.00000,1.199402
420.50000, 
421.00000,1.196381
421.50000, 
422.00000,1.193542
422.50000, 
423.00000,1.190735
423.50000, 
424.00000,1.188202
424.50000, 
425.00000,1.185837
425.50000, 
426.00000,1.184113
426.50000, 
427.00000,1.182159
427.50000, 
428.00000,1.180481
428.50000, 
429.00000,1.179321
429.50000, 
430.00000,1.178055
430.50000, 
431.00000,1.177017
431.50000, 
432.00000,1.176239
432.50000, 
433.00000,1.175903
433.50000, 
434.00000,1.175217
434.50000, 
435.00000,1.174683
435.50000, 
436.00000,1.173950
436.50000, 
437.00000,1.173447
437.50000, 
438.00000,1.172638
438.50000, 
439.00000,1.171982
439.50000, 
440.00000,1.171463
440.50000, 
441.00000,1.171066
441.50000, 
442.00000,1.170700
442.50000, 
443.00000,1.170120
443.50000, 
444.00000,1.169830
444.50000, 
445.00000,1.169586
445.50000, 
446.00000,1.169495
446.50000, 
447.00000,1.169418
447.50000, 
448.00000,1.169235
448.50000, 
449.00000,1.169266
449.50000, 
450.00000,1.169357
450.50000, 
451.00000,1.169739
451.50000, 
452.00000,1.169327
452.50000, 
453.00000,1.169479
453.50000, 
454.00000,1.169617
454.50000, 
455.00000,1.170135
455.50000, 
456.00000,1.170471
456.50000, 
457.00000,1.170822
457.50000, 
458.00000,1.171204
458.50000, 
459.00000,1.171753
459.50000, 
460.00000,1.171890
460.50000, 
461.00000,1.172348
461.50000, 
462.00000,1.172562
462.50000, 
463.00000,1.172760
463.50000, 
464.00000,1.173492
464.50000, 
465.00000,1.173676
465.50000, 
466.00000,1.174179
466.50000, 
467.00000,1.174057
467.50000, 
468.00000,1.174179
468.50000, 
469.00000,1.174072
469.50000, 
470.00000,1.173447
470.50000, 
471.00000,1.172363
471.50000, 
472.00000,1.169983
472.50000, 
473.00000,1.165558
473.50000, 
474.00000,1.164398
474.50000, 
475.00000,1.167252
475.50000, 
476.00000,1.171127
476.50000, 
477.00000,1.176163
477.50000, 
478.00000,1.182053
478.50000, 
479.00000,1.188889
479.50000, 
480.00000,1.196960
480.50000, 
481.00000,1.206802
481.50000, 
482.00000,1.217575
482.50000, 
483.00000,1.230148
483.50000, 
484.00000,1.245316
484.50000, 
485.00000,1.261597
485.50000, 
486.00000,1.279556
486.50000, 
487.00000,1.298889
487.50000, 
488.00000,1.317810
488.50000, 
489.00000,1.335571
489.50000, 
490.00000,1.352081
490.50000, 
491.00000,1.365936
491.50000, 
492.00000,1.376862
492.50000, 
493.00000,1.384720
493.50000, 
494.00000,1.389618
494.50000, 
495.00000,1.391632
495.50000, 
496.00000,1.391006
496.50000, 
497.00000,1.388672
497.50000, 
498.00000,1.384888
498.50000, 
499.00000,1.380524
499.50000, 
500.00000,1.375534
500.50000, 
501.00000,1.369980
501.50000, 
502.00000,1.364548
502.50000, 
503.00000,1.359253
503.50000, 
504.00000,1.354462
504.50000, 
505.00000,1.349701
505.50000, 
506.00000,1.345245
506.50000, 
507.00000,1.341171
507.50000, 
508.00000,1.337433
508.50000, 
509.00000,1.334015
509.50000, 
510.00000,1.330826
510.50000, 
511.00000,1.327911
511.50000, 
512.00000,1.325211
512.50000, 
513.00000,1.323166
513.50000, 
514.00000,1.320694
514.50000, 
515.00000,1.318665
515.50000, 
516.00000,1.316635
516.50000, 
517.00000,1.314575
517.50000, 
518.00000,1.312622
518.50000, 
519.00000,1.310989
519.50000, 
520.00000,1.309174
520.50000, 
521.00000,1.307648
521.50000, 
522.00000,1.305954
522.50000, 
523.00000,1.304291
523.50000, 
524.00000,1.302536
524.50000, 
525.00000,1.301010
525.50000, 
526.00000,1.299347
526.50000, 
527.00000,1.297745
527.50000, 
528.00000,1.296219
528.50000, 
529.00000,1.294708
529.50000, 
530.00000,1.293045
530.50000, 
531.00000,1.291901
531.50000, 
532.00000,1.290756
532.50000, 
533.00000,1.289749
533.50000, 
534.00000,1.288498
534.50000, 
535.00000,1.287613
535.50000, 
536.00000,1.285904
536.50000, 
537.00000,1.283936
537.50000, 
538.00000,1.283279
538.50000, 
539.00000,1.283005
539.50000, 
540.00000,1.282928
540.50000, 
541.00000,1.282806
541.50000, 
542.00000,1.282806
542.50000, 
543.00000,1.282852
543.50000, 
544.00000,1.283051
544.50000, 
545.00000,1.283188
545.50000, 
546.00000,1.283463
546.50000, 
547.00000,1.283737
547.50000, 
548.00000,1.283997
548.50000, 
549.00000,1.284409
549.50000, 
550.00000,1.284668
550.50000, 
551.00000,1.284988
551.50000, 
552.00000,1.285049
552.50000, 
553.00000,1.285187
553.50000, 
554.00000,1.285080
554.50000, 
555.00000,1.284958
555.50000, 
556.00000,1.284622
556.50000, 
557.00000,1.284012
557.50000, 
558.00000,1.283234
558.50000, 
559.00000,1.282303
559.50000, 
560.00000,1.281189
560.50000, 
561.00000,1.279877
561.50000, 
562.00000,1.278473
562.50000, 
563.00000,1.276855
563.50000, 
564.00000,1.274979
564.50000, 
565.00000,1.272903
565.50000, 
566.00000,1.270645
566.50000, 
567.00000,1.268417
567.50000, 
568.00000,1.265915
568.50000, 
569.00000,1.263474
569.50000, 
570.00000,1.260834
570.50000, 
571.00000,1.258301
571.50000, 
572.00000,1.255630
572.50000, 
573.00000,1.253082
573.50000, 
574.00000,1.250244
574.50000, 
575.00000,1.247360
575.50000, 
576.00000,1.244720
576.50000, 
577.00000,1.242111
577.50000, 
578.00000,1.239532
578.50000, 
579.00000,1.237061
579.50000, 
580.00000,1.234924
580.50000, 
581.00000,1.232742
581.50000, 
582.00000,1.230911
582.50000, 
583.00000,1.229248
583.50000, 
584.00000,1.227631
584.50000, 
585.00000,1.226273
585.50000, 
586.00000,1.225266
586.50000, 
587.00000,1.224289
587.50000, 
588.00000,1.223541
588.50000, 
589.00000,1.223007
589.50000, 
590.00000,1.222687
590.50000, 
591.00000,1.222534
591.50000, 
592.00000,1.222519
592.50000, 
593.00000,1.222641
593.50000, 
594.00000,1.222702
594.50000, 
595.00000,1.223022
595.50000, 
596.00000,1.223328
596.50000, 
597.00000,1.223801
597.50000, 
598.00000,1.224319
598.50000, 
599.00000,1.224716
599.50000, 
600.00000,1.225021
600.50000, 
601.00000,1.225311
601.50000, 
602.00000,1.225510
602.50000, 
603.00000,1.225510
603.50000, 
604.00000,1.225204
604.50000, 
605.00000,1.224899
605.50000, 
606.00000,1.224228
606.50000, 
607.00000,1.223389
607.50000, 
608.00000,1.222198
608.50000, 
609.00000,1.220825
609.50000, 
610.00000,1.219055
610.50000, 
611.00000,1.217072
611.50000, 
612.00000,1.214798
612.50000, 
613.00000,1.212387
613.50000, 
614.00000,1.209702
614.50000, 
615.00000,1.206650
615.50000, 
616.00000,1.203430
616.50000, 
617.00000,1.200027
617.50000, 
618.00000,1.196320
618.50000, 
619.00000,1.192566
619.50000, 
620.00000,1.188629
620.50000, 
621.00000,1.184280
621.50000, 
622.00000,1.180054
622.50000, 
623.00000,1.175568
623.50000, 
624.00000,1.170822
624.50000, 
625.00000,1.166016
625.50000, 
626.00000,1.161102
626.50000, 
627.00000,1.156082
627.50000, 
628.00000,1.150803
628.50000, 
629.00000,1.145493
629.50000, 
630.00000,1.139694
630.50000, 
631.00000,1.133667
631.50000, 
632.00000,1.126587
632.50000, 
633.00000,1.117340
633.50000, 
634.00000,1.104111
634.50000, 
635.00000,1.100754
635.50000, 
636.00000,1.111908
636.50000, 
637.00000,1.127518
637.50000, 
638.00000,1.147278
638.50000, 
639.00000,1.172821
639.50000, 
640.00000,1.202408
640.50000, 
641.00000,1.235001
641.50000, 
642.00000,1.269180
642.50000, 
643.00000,1.302231
643.50000, 
644.00000,1.331100
644.50000, 
645.00000,1.352539
645.50000, 
646.00000,1.365570
646.50000, 
647.00000,1.369614
647.50000, 
648.00000,1.365433
648.50000, 
649.00000,1.355072
649.50000, 
650.00000,1.341156
650.50000, 
651.00000,1.325073
651.50000, 
652.00000,1.308121
652.50000, 
653.00000,1.291702
653.50000, 
654.00000,1.275787
654.50000, 
655.00000,1.261063
655.50000, 
656.00000,1.247482
656.50000, 
657.00000,1.234970
657.50000, 
658.00000,1.223724
658.50000, 
659.00000,1.213562
659.50000, 
660.00000,1.203705
660.50000, 
661.00000,1.194778
661.50000, 
662.00000,1.186935
662.50000, 
663.00000,1.179718
663.50000, 
664.00000,1.172928
664.50000, 
665.00000,1.166916
665.50000, 
666.00000,1.161316
666.50000, 
667.00000,1.156128
667.50000, 
668.00000,1.151123
668.50000, 
669.00000,1.146362
669.50000, 
670.00000,1.141815
670.50000, 
671.00000,1.137619
671.50000, 
672.00000,1.133560
672.50000, 
673.00000,1.130112
673.50000, 
674.00000,1.126526
674.50000, 
675.00000,1.123215
675.50000, 
676.00000,1.119919
676.50000, 
677.00000,1.117157
677.50000, 
678.00000,1.114304
678.50000, 
679.00000,1.111679
679.50000, 
680.00000,1.109100
680.50000, 
681.00000,1.106812
681.50000, 
682.00000,1.104446
682.50000, 
683.00000,1.102402
683.50000, 
684.00000,1.100327
684.50000, 
685.00000,1.098450
685.50000, 
686.00000,1.096512
686.50000, 
687.00000,1.094788
687.50000, 
688.00000,1.092896
688.50000, 
689.00000,1.091293
689.50000, 
690.00000,1.089493
690.50000, 
691.00000,1.088043
691.50000, 
692.00000,1.086548
692.50000, 
693.00000,1.085175
693.50000, 
694.00000,1.083710
694.50000, 
695.00000,1.082306
695.50000, 
696.00000,1.080933
696.50000, 
697.00000,1.079620
697.50000, 
698.00000,1.078323
698.50000, 
699.00000,1.077057
699.50000, 
700.00000,1.075775
700.50000, 
701.00000,1.074509
701.50000, 
702.00000,1.073456
702.50000, 
703.00000,1.072357
703.50000, 
704.00000,1.071320
704.50000, 
705.00000,1.070236
705.50000, 
706.00000,1.069168
706.50000, 
707.00000,1.068039
707.50000, 
708.00000,1.067154
708.50000, 
709.00000,1.066086
709.50000, 
710.00000,1.065140
710.50000, 
711.00000,1.064117
711.50000, 
712.00000,1.063202
712.50000, 
713.00000,1.062347
713.50000, 
714.00000,1.061325
714.50000, 
715.00000,1.060410
715.50000, 
716.00000,1.059494
716.50000, 
717.00000,1.058640
717.50000, 
718.00000,1.057617
718.50000, 
719.00000,1.056870
719.50000, 
720.00000,1.055832
720.50000, 
721.00000,1.054993
721.50000, 
722.00000,1.054123
722.50000, 
723.00000,1.053238
723.50000, 
724.00000,1.052444
724.50000, 
725.00000,1.051590
725.50000, 
726.00000,1.050858
726.50000, 
727.00000,1.050034
727.50000, 
728.00000,1.049332
728.50000, 
729.00000,1.048553
729.50000, 
730.00000,1.047882
730.50000, 
731.00000,1.047180
731.50000, 
732.00000,1.046402
732.50000, 
733.00000,1.045853
733.50000, 
734.00000,1.045120
734.50000, 
735.00000,1.044586
735.50000, 
736.00000,1.044022
736.50000, 
737.00000,1.043411
737.50000, 
738.00000,1.042816
738.50000, 
739.00000,1.042160
739.50000, 
740.00000,1.041626
740.50000, 
741.00000,1.041061
741.50000, 
742.00000,1.040558
742.50000, 
743.00000,1.039963
743.50000, 
744.00000,1.039398
744.50000, 
745.00000,1.038956
745.50000, 
746.00000,1.038177
746.50000, 
747.00000,1.037689
747.50000, 
748.00000,1.037064
748.50000, 
749.00000,1.036591
749.50000, 
750.00000,1.036163
750.50000, 
751.00000,1.035522
751.50000, 
752.00000,1.035172
752.50000, 
753.00000,1.034760
753.50000, 
754.00000,1.034348
754.50000, 
755.00000,1.033951
755.50000, 
756.00000,1.033447
756.50000, 
757.00000,1.032974
757.50000, 
758.00000,1.032700
758.50000, 
759.00000,1.032166
759.50000, 
760.00000,1.032166
760.50000, 
761.00000,1.031677
761.50000, 
762.00000,1.031311
762.50000, 
763.00000,1.031143
763.50000, 
764.00000,1.030533
764.50000, 
765.00000,1.030365
765.50000, 
766.00000,1.029861
766.50000, 
767.00000,1.029694
767.50000, 
768.00000,1.029312
768.50000, 
769.00000,1.028915
769.50000, 
770.00000,1.028641
770.50000, 
771.00000,1.028229
771.50000, 
772.00000,1.028030
772.50000, 
773.00000,1.027740
773.50000, 
774.00000,1.027313
774.50000, 
775.00000,1.026993
775.50000, 
776.00000,1.026703
776.50000, 
777.00000,1.026245
777.50000, 
778.00000,1.026154
778.50000, 
779.00000,1.025635
779.50000, 
780.00000,1.025467
780.50000, 
781.00000,1.025192
781.50000, 
782.00000,1.024704
782.50000, 
783.00000,1.024292
783.50000, 
784.00000,1.024033
784.50000, 
785.00000,1.023483
785.50000, 
786.00000,1.023285
786.50000, 
787.00000,1.022614
787.50000, 
788.00000,1.022049
788.50000, 
789.00000,1.021835
789.50000, 
790.00000,1.021057
790.50000, 
791.00000,1.020691
791.50000, 
792.00000,1.019974
792.50000, 
793.00000,1.019287
793.50000, 
794.00000,1.018555
794.50000, 
795.00000,1.017792
795.50000, 
796.00000,1.016769
796.50000, 
797.00000,1.016312
797.50000, 
798.00000,1.014954
798.50000, 
799.00000,1.014191
799.50000, 
800.00000,1.013077
800.50000, 
801.00000,1.011765
801.50000, 
802.00000,1.010468
802.50000, 
803.00000,1.009445
803.50000, 
804.00000,1.007584
804.50000, 
805.00000,1.006546
805.50000, 
806.00000,1.004883
806.50000, 
807.00000,1.003036
807.50000, 
808.00000,1.001328
808.50000, 
809.00000,0.999359
809.50000, 
810.00000,0.996750
810.50000, 
811.00000,0.995041
811.50000, 
812.00000,0.992462
812.50000, 
813.00000,0.990036
813.50000, 
814.00000,0.987518
814.50000, 
815.00000,0.984772
815.50000, 
816.00000,0.981598
816.50000, 
817.00000,0.978821
817.50000, 
818.00000,0.975128
818.50000, 
819.00000,0.972183
819.50000, 
820.00000,0.968918
820.50000, 
821.00000,0.965057
821.50000, 
822.00000,0.961609
822.50000, 
823.00000,0.958008
823.50000, 
824.00000,0.953766
824.50000, 
825.00000,0.949814
825.50000, 
826.00000,0.946182
826.50000, 
827.00000,0.941345
827.50000, 
828.00000,0.937134
828.50000, 
829.00000,0.932785
829.50000, 
830.00000,0.928131
830.50000, 
831.00000,0.923157
831.50000, 
832.00000,0.918762
832.50000, 
833.00000,0.913223
833.50000, 
834.00000,0.908203
834.50000, 
835.00000,0.903290
835.50000, 
836.00000,0.897446
836.50000, 
837.00000,0.891983
837.50000, 
838.00000,0.886749
838.50000, 
839.00000,0.880676
839.50000, 
840.00000,0.875137
840.50000, 
841.00000,0.870285
841.50000, 
842.00000,0.863998
842.50000, 
843.00000,0.858459
843.50000, 
844.00000,0.852844
844.50000, 
845.00000,0.846909
845.50000, 
846.00000,0.840927
846.50000, 
847.00000,0.835892
847.50000, 
848.00000,0.830063
848.50000, 
849.00000,0.823868
849.50000, 
850.00000,0.818741
850.50000, 
851.00000,0.812759
851.50000, 
852.00000,0.806778
852.50000, 
853.00000,0.801193
853.50000, 
854.00000,0.795609
854.50000, 
855.00000,0.788956
855.50000, 
856.00000,0.783447
856.50000, 
857.00000,0.778030
857.50000, 
858.00000,0.771515
858.50000, 
859.00000,0.766052
859.50000, 
860.00000,0.760544
860.50000, 
861.00000,0.754654
861.50000, 
862.00000,0.748581
862.50000, 
863.00000,0.743698
863.50000, 
864.00000,0.737747
864.50000, 
865.00000,0.732162
865.50000, 
866.00000,0.727417
866.50000, 
867.00000,0.722214
867.50000, 
868.00000,0.716675
868.50000, 
869.00000,0.711731
869.50000, 
870.00000,0.707184
870.50000, 
871.00000,0.701538
871.50000, 
872.00000,0.696716
872.50000, 
873.00000,0.692520
873.50000, 
874.00000,0.687485
874.50000, 
875.00000,0.682480
875.50000, 
876.00000,0.678177
876.50000, 
877.00000,0.673676
877.50000, 
878.00000,0.668396
878.50000, 
879.00000,0.664246
879.50000, 
880.00000,0.660049
880.50000, 
881.00000,0.655075
881.50000, 
882.00000,0.650757
882.50000, 
883.00000,0.647064
883.50000, 
884.00000,0.642563
884.50000, 
885.00000,0.638092
885.50000, 
886.00000,0.634872
886.50000, 
887.00000,0.631027
887.50000, 
888.00000,0.626572
888.50000, 
889.00000,0.623291
889.50000, 
890.00000,0.620346
890.50000, 
891.00000,0.616287
891.50000, 
892.00000,0.612534
892.50000, 
893.00000,0.609955
893.50000, 
894.00000,0.606567
894.50000, 
895.00000,0.602982
895.50000, 
896.00000,0.600067
896.50000, 
897.00000,0.597336
897.50000, 
898.00000,0.593994
898.50000, 
899.00000,0.590485
899.50000, 
900.00000,0.588593
900.50000, 
901.00000, 
901.50000, 
902.00000, 
902.50000, 
903.00000, 
903.50000, 
904.00000, 
904.50000, 
905.00000, 
905.50000, 
906.00000, 
906.50000, 
907.00000, 
907.50000, 
908.00000, 
908.50000, 
909.00000, 
909.50000, 
910.00000, 
910.50000, 
911.00000, 
911.50000, 
912.00000, 
912.50000, 
913.00000, 
913.50000, 
914.00000, 
914.50000, 
915.00000, 
915.50000, 
916.00000, 
916.50000, 
917.00000, 
917.50000, 
918.00000, 
918.50000, 
919.00000, 
919.50000, 
920.00000, 
920.50000, 
921.00000, 
921.50000, 
922.00000, 
922.50000, 
923.00000, 
923.50000, 
924.00000, 
924.50000, 
925.00000, 
925.50000, 
926.00000, 
926.50000, 
927.00000, 
927.50000, 
928.00000, 
928.50000, 
929.00000, 
929.50000, 
930.00000, 
930.50000, 
931.00000, 
931.50000, 
932.00000, 
932.50000, 
933.00000, 
933.50000, 
934.00000, 
934.50000, 
935.00000, 
935.50000, 
936.00000, 
936.50000, 
937.00000, 
937.50000, 
938.00000, 
938.50000, 
939.00000, 
939.50000, 
940.00000, 
940.50000, 
941.00000, 
941.50000, 
942.00000, 
942.50000, 
943.00000, 
943.50000, 
944.00000, 
944.50000, 
945.00000, 
945.50000, 
946.00000, 
946.50000, 
947.00000, 
947.50000, 
948.00000, 
948.50000, 
949.00000, 
949.50000, 
950.00000, 
950.50000, 
951.00000, 
951.50000, 
952.00000, 
952.50000, 
953.00000, 
953.50000, 
954.00000, 
954.50000, 
955.00000, 
955.50000, 
956.00000, 
956.50000, 
957.00000, 
957.50000, 
958.00000, 
958.50000, 
959.00000, 
959.50000, 
960.00000, 
960.50000, 
961.00000, 
961.50000, 
962.00000, 
962.50000, 
963.00000, 
963.50000, 
964.00000, 
964.50000, 
965.00000, 
965.50000, 
966.00000, 
966.50000, 
967.00000, 
967.50000, 
968.00000, 
968.50000, 
969.00000, 
969.50000, 
970.00000, 
970.50000, 
971.00000, 
971.50000, 
972.00000, 
972.50000, 
973.00000, 
973.50000, 
974.00000, 
974.50000, 
975.00000, 
975.50000, 
976.00000, 
976.50000, 
977.00000, 
977.50000, 
978.00000, 
978.50000, 
979.00000, 
979.50000, 
980.00000, 
980.50000, 
981.00000, 
981.50000, 
982.00000, 
982.50000, 
983.00000, 
983.50000, 
984.00000, 
984.50000, 
985.00000, 
985.50000, 
986.00000, 
986.50000, 
987.00000, 
987.50000, 
988.00000, 
988.50000, 
989.00000, 
989.50000, 
990.00000, 
990.50000, 
991.00000, 
991.50000, 
992.00000, 
992.50000, 
993.00000, 
993.50000, 
994.00000, 
994.50000, 
995.00000, 
995.50000, 
996.00000, 
996.50000, 
997.00000, 
997.50000, 
998.00000, 
998.50000, 
999.00000, 
999.50000, 
1000.00000, 
1000.50000, 
1001.00000, 
1001.50000, 
1002.00000, 
1002.50000, 
1003.00000, 
1003.50000, 
1004.00000, 
1004.50000, 
1005.00000, 
1005.50000, 
1006.00000, 
1006.50000, 
1007.00000, 
1007.50000, 
1008.00000, 
1008.50000, 
1009.00000, 
1009.50000, 
1010.00000, 
1010.50000, 
1011.00000, 
1011.50000, 
1012.00000, 
1012.50000, 
1013.00000, 
1013.50000, 
1014.00000, 
1014.50000, 
1015.00000, 
1015.50000, 
1016.00000, 
1016.50000, 
1017.00000, 
1017.50000, 
1018.00000, 
1018.50000, 
1019.00000, 
1019.50000, 
1020.00000, 
1020.50000, 
1021.00000, 
1021.50000, 
1022.00000, 
1022.50000, 
1023.00000, 
1023.50000, 
1024.00000, 
1024.50000, 
1025.00000, 
1025.50000, 
1026.00000, 
1026.50000, 
1027.00000, 
1027.50000, 
1028.00000, 
1028.50000, 
1029.00000, 
1029.50000, 
1030.00000, 
1030.50000, 
1031.00000, 
1031.50000, 
1032.00000, 
1032.50000, 
1033.00000, 
1033.50000, 
1034.00000, 
1034.50000, 
1035.00000, 
1035.50000, 
1036.00000, 
1036.50000, 
1037.00000, 
1037.50000, 
1038.00000, 
1038.50000, 
1039.00000, 
1039.50000, 
1040.00000, 
1040.50000, 
1041.00000, 
1041.50000, 
1042.00000, 
1042.50000, 
1043.00000, 
1043.50000, 
1044.00000, 
1044.50000, 
1045.00000, 
1045.50000, 
1046.00000, 
1046.50000, 
1047.00000, 
1047.50000, 
1048.00000, 
1048.50000, 
1049.00000, 
1049.50000, 
1050.00000, 
1050.50000, 
1051.00000, 
1051.50000, 
1052.00000, 
1052.50000, 
1053.00000, 
1053.50000, 
1054.00000, 
1054.50000, 
1055.00000, 
1055.50000, 
1056.00000, 
1056.50000, 
1057.00000, 
1057.50000, 
1058.00000, 
1058.50000, 
1059.00000, 
1059.50000, 
1060.00000, 
1060.50000, 
1061.00000, 
1061.50000, 
1062.00000, 
1062.50000, 
1063.00000, 
1063.50000, 
1064.00000, 
1064.50000, 
1065.00000, 
1065.50000, 
1066.00000, 
1066.50000, 
1067.00000, 
1067.50000, 
1068.00000, 
1068.50000, 
1069.00000, 
1069.50000, 
1070.00000, 
1070.50000, 
1071.00000, 
1071.50000, 
1072.00000, 
1072.50000, 
1073.00000, 
1073.50000, 
1074.00000, 
1074.50000, 
1075.00000, 
1075.50000, 
1076.00000, 
1076.50000, 
1077.00000, 
1077.50000, 
1078.00000, 
1078.50000, 
1079.00000, 
1079.50000, 
1080.00000, 
1080.50000, 
1081.00000, 
1081.50000, 
1082.00000, 
1082.50000, 
1083.00000, 
1083.50000, 
1084.00000, 
1084.50000, 
1085.00000, 
1085.50000, 
1086.00000, 
1086.50000, 
1087.00000, 
1087.50000, 
1088.00000, 
1088.50000, 
1089.00000, 
1089.50000, 
1090.00000, 
1090.50000, 
1091.00000, 
1091.50000, 
1092.00000, 
1092.50000, 
1093.00000, 
1093.50000, 
1094.00000, 
1094.50000, 
1095.00000, 
1095.50000, 
1096.00000, 
1096.50000, 
1097.00000, 
1097.50000, 
1098.00000, 
1098.50000, 
1099.00000, 
1099.50000, 
1100.00000, 
